Wavelength (nm),Absorbance (AU),Std.Dev.
190,0.347946166992187,0.0394511911654769
192,0.418533325195313,0.05032851065127
194,0.555999755859375,0.0465483409680195
196,0.744735717773438,0.0463841487774919
198,1.13421630859375,0.0535598015656332
200,1.50189208984375,0.0579390506804349
202,1.89628601074219,0.0653640645729747
204,2.19136047363281,0.068107795992823
206,2.45750427246094,0.097578093724975
208,2.57192993164063,0.0819381912632931
210,2.77311706542969,0.120017902310447
212,2.646728515625,0.0696584160161211
214,2.70687866210937,0.109375
216,2.72174072265625,0.0924387466109315
218,2.66392517089844,0.118482428813305
220,2.59780883789062,0.0890762050858702
222,2.58270263671875,0.0924387466109315
224,2.69197082519531,0.09375
226,2.69317626953125,0.122783075355482
228,2.75897216796875,0.0698771242968684
230,2.87002563476562,0.0796721798998873
232,2.92378234863281,0.079288215352283
234,3.1087646484375,0.0713893237597542
236,3.28840637207031,0.0667500292602932
238,3.23927307128906,0.103938552309766
240,3.32951354980469,0.0810017240364364
242,3.34588623046875,0.0897587913521567
244,3.50413513183594,0.104231750500987
246,3.42300415039062,0.0900981452708656
248,3.43035888671875,0.0982016022654417
250,3.40101623535156,0.124510761332103
252,3.32015991210937,0.0914429680524971
254,3.26101684570313,0.0763469542409846
256,3.15892028808594,0.0658292951029403
258,3.03648376464844,0.0564720011515663
260,2.96084594726563,0.0296206072033264
262,2.87055969238281,0.0298131592235815
264,2.50579833984375,0.0193842121496867
266,1.63996887207031,0.00183917470377434
268,1.10133361816406,0.000614912160632626
270,0.881591796875,0.00036748030330787
272,0.838302612304688,0.000353266507043159
274,0.875244140625,0.0005838356466586
276,0.94793701171875,0.000409436275176964
278,1.03901672363281,0.000653104692353293
280,1.14842224121094,0.000779244710376203
282,1.27290344238281,0.00106067792950334
284,1.41096496582031,0.00140248111487745
286,1.56373596191406,0.00163774510070785
288,1.72798156738281,0.0022175173491925
290,1.90203857421875,0.00456745286471428
292,2.09246826171875,0.00617632355501637
294,2.29949951171875,0.00740515180083159
296,2.52806091308594,0.0159272523733399
298,2.75447082519531,0.0215729707366939
300,2.93551635742188,0.0329146475514702
302,3.10899353027344,0.0627436656414415
304,3.32908630371094,0.0994368911043583
306,3.45919799804688,0.0914429680524971
308,3.5103759765625,0.128372474415273
310,3.58293151855469,0.116926793336686
312,3.59738159179687,0.137553256731711
314,3.58784484863281,0.159726939845788
316,3.68128967285156,0.171875
318,3.51174926757812,0.113483117549484
320,3.61990356445313,0.219307325744034
322,3.47557067871094,0.138437852708354
324,3.58793640136719,0.137553256731711
326,3.37037658691406,0.0808131283811609
328,3.56588745117188,0.133500058520586
330,3.59072875976563,0.28641098093474
332,3.55804443359375,0.25958199571619
334,3.38140869140625,0.136215591985646
336,3.33146667480469,0.100353379520821
338,3.49131774902344,0.136215591985646
340,3.27059936523438,0.0835974006212215
342,3.23138427734375,0.0769442015765321
344,3.13188171386719,0.0678833874882139
346,3.10832214355469,0.0579390506804349
348,3.13597106933594,0.0753410215702575
350,2.99801635742187,0.0646599428017455
352,3.01283264160156,0.0528427705408933
354,2.97279357910156,0.055242717280199
356,2.94227600097656,0.0665210404919
358,2.78634643554687,0.0484752876796518
360,2.57560729980469,0.0392573266450035
362,2.58015441894531,0.0223545373872258
364,2.56245422363281,0.0288375450395184
366,2.47367858886719,0.0272038833538752
368,2.39613342285156,0.0162238747322619
370,2.28318786621094,0.0151917472520547
372,2.10784912109375,0.0112198489190196
374,1.907470703125,0.00767394220971763
376,1.6756591796875,0.00349556178302645
378,1.43669128417969,0.00227063906710672
380,1.21221923828125,0.000878142979122202
382,1.00575256347656,0.000672772451325946
384,0.828445434570313,0.000453676414407913
386,0.676727294921875,0.000227350836574575
388,0.548858642578125,0.000169914683924256
390,0.445343017578125,0.000172633491500622
392,0.35760498046875,0.000153728040158156
394,0.289871215820312,0.0000968061640964472
396,0.234146118164062,0.000105990936198805
398,0.19036865234375,0.00012254622195594
400,0.1573486328125,0.000076102971432724
402,0.130813598632812,0.000121831660634394
404,0.110198974609375,0.000100349017623641
406,0.0947113037109375,0.0000816380865441616
408,0.0834197998046875,0.0000733771669833044
410,0.0746612548828125,0.0000866532645538372
412,0.0681610107421875,0.0000598311887411427
414,0.063385009765625,0.0000902722134872378
416,0.0601348876953125,0.0000892997734887667
418,0.0576019287109375,0.0000902722134872378
420,0.0556640625,0.0000955960394755681
422,0.0543212890625,0.000085809493096939
424,0.053436279296875,0.0000757195787097138
426,0.0526885986328125,0.0000879864699910797
428,0.05206298828125,0.0000787344644186031
430,0.0520477294921875,0.0000785494242934189
432,0.051422119140625,0.0000912342891166794
434,0.051361083984375,0.000107083655148454
436,0.050994873046875,0.0000717731007470199
438,0.0508880615234375,0.0000828764380737321
440,0.0506744384765625,0.000103490142564778
442,0.0503997802734375,0.0000886455538835316
444,0.05035400390625,0.0000747524945917718
446,0.0502471923828125,0.0000749469097304859
448,0.0500335693359375,0.0000834015316355722
450,0.0499420166015625,0.0000928155903670993
452,0.04998779296875,0.0000971063389690999
454,0.049957275390625,0.0000725795653932207
456,0.04974365234375,0.0000873224116688507
458,0.0494232177734375,0.000064512384511138
460,0.04974365234375,0.0000928155903670993
462,0.0496063232421875,0.0000751408218520821
464,0.049560546875,0.0000892997734887667
466,0.0493316650390625,0.0000902722134872378
468,0.049468994140625,0.0000869884815291701
470,0.0493316650390625,0.000121831660634394
472,0.04937744140625,0.000121592540363382
474,0.049072265625,0.000124898571348151
476,0.049163818359375,0.000107625854337051
478,0.04913330078125,0.0000896250925023707
480,0.049072265625,0.0000940614929652248
482,0.0494842529296875,0.0000985935057321173
484,0.0499725341796875,0.000116457653217115
486,0.05096435546875,0.0000647375593127332
488,0.04986572265625,0.00013037115089901
490,0.048919677734375,0.0000937515695758401
492,0.04864501953125,0.0000980013471883021
494,0.0485687255859375,0.000144354918887516
496,0.0487823486328125,0.000105163946167681
498,0.04840087890625,0.000107083655148454
500,0.0483856201171875,0.00010178881884862
502,0.048248291015625,0.000103490142564778
504,0.0482177734375,0.000105440330208475
506,0.048248291015625,0.0000931286286600777
508,0.048370361328125,0.000128119320859884
510,0.0482635498046875,0.000152587890625
512,0.048248291015625,0.000123020290348794
514,0.04803466796875,0.000129475118625466
516,0.0483551025390625,0.000125827198047414
518,0.0479583740234375,0.000109767872390275
520,0.048248291015625,0.000167151659394887
522,0.0480194091796875,0.000185002985427584
524,0.0480194091796875,0.000151054305063044
526,0.0479888916015625,0.000171279482426786
528,0.0475311279296875,0.000182468578233359
530,0.0474700927734375,0.000159306434767312
532,0.04730224609375,0.000165752876147464
534,0.047119140625,0.000144757583320696
536,0.0472564697265625,0.000106265169351075
538,0.04693603515625,0.000129923907210742
540,0.0467681884765625,0.000129475118625466
542,0.04638671875,0.0000931286286600777
544,0.0461273193359375,0.000115705496887994
546,0.0460205078125,0.000154483465052159
548,0.0459136962890625,0.000116956403478667
550,0.0458221435546875,0.00012857284199793
552,0.0460357666015625,0.000123962988351989
554,0.045440673828125,0.000110032692732666
556,0.045654296875,0.000132144989591131
558,0.045440673828125,0.000119905347026838
560,0.0453643798828125,0.000108165335683882
562,0.0450286865234375,0.000117204982725046
564,0.0454254150390625,0.000104051068855178
566,0.045013427734375,0.000115705496887994
568,0.04486083984375,0.0000787344644186031
570,0.044830322265625,0.0000803806591251582
572,0.0447235107421875,0.0000892997734887667
574,0.0452880859375,0.0000757195787097138
576,0.045074462890625,0.000086316745750311
578,0.0455474853515625,0.0000705461197239187
580,0.0454864501953125,0.0000697161364841349
582,0.04559326171875,0.00008199380973894
584,0.0452423095703125,0.000083051838138875
586,0.04443359375,0.0000673809880548695
588,0.043975830078125,0.00006866455078125
590,0.043487548828125,0.0000692974171622656
592,0.04351806640625,0.0000825245195494993
594,0.04302978515625,0.0000622158295833591
596,0.042938232421875,0.0000879864699910797
598,0.04315185546875,0.0000707520942344338
600,0.043060302734375,0.0000837497650150305
602,0.0435333251953125,0.0000827006660029556
604,0.04278564453125,0.0000955960394755681
606,0.0430908203125,0.0000837497650150305
608,0.042449951171875,0.0000783639472357717
610,0.04229736328125,0.0000837497650150305
612,0.042510986328125,0.000079470316528319
614,0.0420379638671875,0.0000952911071532959
616,0.041900634765625,0.0000946782962493199
618,0.041748046875,0.000086316745750311
620,0.041778564453125,0.0000774298978049638
622,0.041473388671875,0.0000940614929652248
624,0.041717529296875,0.000100927402918419
626,0.0410919189453125,0.00011444091796875
628,0.041168212890625,0.000136904590186511
630,0.041168212890625,0.000115201331104595
632,0.0413665771484375,0.000182468578233359
634,0.04168701171875,0.000144354918887516
636,0.0413665771484375,0.000163276173088323
638,0.040740966796875,0.000176633253521579
640,0.0410614013671875,0.000163276173088323
642,0.0408935546875,0.000208102137710355
644,0.040863037109375,0.000204718137588482
646,0.0408782958984375,0.000219004823217885
648,0.0408172607421875,0.000206417072425364
650,0.0400543212890625,0.000158940633056638
652,0.04052734375,0.00017397696305834
654,0.040618896484375,0.00030593776940557
656,0.0471038818359375,0.000165752876147464
658,0.0359039306640625,0.000191192078951136
660,0.0396881103515625,0.000223737767007678
662,0.039947509765625,0.000226838207203957
664,0.0398101806640625,0.000207541969432609
666,0.0398712158203125,0.000280529423688511
668,0.0399322509765625,0.00034051381842684
670,0.0401458740234375,0.000203004984980012
672,0.0395355224609375,0.000155983339693152
674,0.03912353515625,0.000160398834546117
676,0.0394744873046875,0.000197187011464235
678,0.039520263671875,0.000169571767966407
680,0.0392913818359375,0.00017025690921342
682,0.0391387939453125,0.000193010111094261
684,0.03900146484375,0.00016610367627775
686,0.03912353515625,0.000107895932187889
688,0.03912353515625,0.00012254622195594
690,0.0387420654296875,0.00019895026871346
692,0.0386810302734375,0.000138594834324531
694,0.03839111328125,0.000141092239447837
696,0.0380859375,0.000139849111784541
698,0.0387115478515625,0.000169914683924256
700,0.0380706787109375,0.000221646713963836
702,0.037994384765625,0.000147545468184004
704,0.038543701171875,0.000152587890625
706,0.0379486083984375,0.000185631180734199
708,0.03826904296875,0.0000921863248717848
710,0.03778076171875,0.00014354620149404
712,0.0380859375,0.000168883847207479
714,0.037933349609375,0.000124431659166718
716,0.037750244140625,0.000128119320859884
718,0.0373382568359375,0.000148332382928647
720,0.037811279296875,0.000142732902022321
722,0.0375213623046875,0.000162203152660136
724,0.0370025634765625,0.000162919284851552
726,0.0379486083984375,0.000117204982725046
728,0.0371856689453125,0.000126749021345796
730,0.03717041015625,0.000136904590186511
732,0.03765869140625,0.000105440330208475
734,0.0367584228515625,0.000105440330208475
736,0.0369110107421875,0.0000968061640964472
738,0.0370941162109375,0.000136051593781487
740,0.0372161865234375,0.000139849111784541
742,0.03662109375,0.000141504188468868
744,0.036865234375,0.000129024769022276
746,0.0366363525390625,0.000152205942865448
748,0.0370025634765625,0.000126749021345796
750,0.0365142822265625,0.000123962988351989
752,0.0366668701171875,0.000116707294775225
754,0.036407470703125,0.000103490142564778
756,0.036163330078125,0.000115453689196942
758,0.035797119140625,0.000101502492490006
760,0.0360107421875,0.0000873224116688507
762,0.0360260009765625,0.000102643005730238
764,0.035430908203125,0.000101215356150983
766,0.0360565185546875,0.000108165335683882
768,0.034423828125,0.000115705496887994
770,0.0360565185546875,0.0000825245195494993
772,0.0359344482421875,0.000121831660634394
774,0.0357666015625,0.000129475118625466
776,0.0353851318359375,0.000172633491500622
778,0.0358734130859375,0.000158206492258665
780,0.0357818603515625,0.000145159130786441
782,0.035552978515625,0.000111608420092223
784,0.0351715087890625,0.000112646660310619
786,0.0353851318359375,0.0001563560602716
788,0.035064697265625,0.00013170376969629
790,0.0352783203125,0.000126288950784659
792,0.0350341796875,0.000148332382928647
794,0.0335845947265625,0.000133459897495544
796,0.0360565185546875,0.000129475118625466
798,0.0341033935546875,0.0001983642578125
800,0.034423828125,0.000192406009108253
802,0.0348663330078125,0.000151054305063044
804,0.03582763671875,0.000214167310296909
806,0.0349884033203125,0.000188740797071121
808,0.034454345703125,0.00013170376969629
810,0.034271240234375,0.000197776510571529
812,0.03424072265625,0.000178599546977533
814,0.034881591796875,0.000223737767007678
816,0.03411865234375,0.000188740797071121
818,0.0336761474609375,0.00023040266220919
820,0.03375244140625,0.000264289979182263
