Wavelength (nm),Absorbance (AU),Std.Dev.
190,0.279006958007812,0.0379730900297336
192,0.391799926757812,0.0419808305863373
194,0.49237060546875,0.0450490726354328
196,0.708648681640625,0.0414320379601493
198,1.075439453125,0.0267085826780808
200,1.46900939941406,0.030943319370615
202,1.81277465820313,0.0362250722480301
204,2.1470947265625,0.0513786970233043
206,2.38069152832031,0.0875209238375316
208,2.53343200683594,0.0572768683539656
210,2.68418884277344,0.0808131283811609
212,2.61918640136719,0.069439018885278
214,2.64610290527344,0.0862918829467755
216,2.53402709960937,0.0516748302942303
218,2.57444763183594,0.0802446819694302
220,2.52568054199219,0.0594982273895618
222,2.42921447753906,0.0491008011327208
224,2.59295654296875,0.0841432001114766
226,2.51687622070312,0.0555182437638746
228,2.54307556152344,0.0424327362937508
230,2.55770874023438,0.0497184455521791
232,2.57502746582031,0.0353725981958493
234,2.66590881347656,0.028437929255002
236,2.81449890136719,0.0336028330743853
238,2.97021484375,0.0555182437638746
240,3.09126281738281,0.0653640645729747
242,3.15730285644531,0.0600089511552235
244,3.13450622558594,0.0487890468624875
246,3.10272216796875,0.0576750900790367
248,3.02072143554687,0.0587238139780192
250,2.93901062011719,0.0306957688388705
252,2.80497741699219,0.0282360005757831
254,2.70053100585938,0.0271336796668941
256,2.56980895996094,0.0210810870555888
258,2.42242431640625,0.0104039432386047
260,2.12763977050781,0.00573600592015172
262,1.43962097167969,0.0012508484821728
264,0.835311889648438,0.000328684375435456
266,0.480026245117188,0.000206417072425364
268,0.317047119140625,0.000204718137588482
270,0.259857177734375,0.000132584741187918
272,0.249130249023437,0.000162919284851552
274,0.256805419921875,0.000196002694376604
276,0.273361206054687,0.000207541969432609
278,0.294403076171875,0.000149115145001923
280,0.31939697265625,0.000170939304370179
282,0.348297119140625,0.000167151659394887
284,0.380630493164062,0.000197776510571529
286,0.416183471679688,0.000172633491500622
288,0.454544067382813,0.000168193112831487
290,0.49615478515625,0.000177946529994058
292,0.541854858398438,0.000253498042691592
294,0.591766357421875,0.000219535744780551
296,0.646575927734375,0.000282184478895675
298,0.70452880859375,0.000211981872397611
300,0.764373779296875,0.00026074230179802
302,0.823760986328125,0.000351945879964319
304,0.88201904296875,0.000390815688319876
306,0.93890380859375,0.000322967689338939
308,0.993865966796875,0.000477675654373124
310,1.04594421386719,0.000490184887823761
312,1.09346008300781,0.000402554503121122
314,1.13121032714844,0.000593329531714587
316,1.15478515625,0.000601126574816657
318,1.1611328125,0.000533839589982175
320,1.1502685546875,0.000812019939920048
322,1.12939453125,0.000729874312933435
324,1.11056518554687,0.000475721962528073
326,1.10336303710937,0.000490184887823761
328,1.11141967773438,0.000701240557438724
330,1.13580322265625,0.000693226116430698
332,1.17259216308594,0.000653104692353293
334,1.21589660644531,0.000861006834696404
336,1.26162719726563,0.000711786119976233
338,1.30368041992187,0.000991703906815913
340,1.34243774414062,0.00103939125768594
342,1.37211608886719,0.00114512103511314
344,1.3922119140625,0.00103219815217821
346,1.40376281738281,0.00115160902490925
348,1.40359497070313,0.0021143198334581
350,1.39004516601562,0.00129762522128109
352,1.36416625976563,0.00166928641738005
354,1.32423400878906,0.0014443554157958
356,1.27587890625,0.000882375017993223
358,1.21726989746094,0.00113859607581651
360,1.13496398925781,0.00227063906710672
362,1.05619812011719,0.00119603991346835
364,0.97216796875,0.000779244710376203
366,0.880996704101563,0.000647375593127332
368,0.788711547851563,0.000622438905467869
370,0.698211669921875,0.000337767694414957
372,0.609664916992188,0.000236388143689418
374,0.52728271484375,0.000221646713963836
376,0.452804565429688,0.000161843898281833
378,0.385757446289062,0.000204148684085993
380,0.32806396484375,0.000143951128113657
382,0.27685546875,0.000169228157141257
384,0.234039306640625,0.000124898571348151
386,0.19769287109375,0.000127664188619091
388,0.167037963867187,0.000109502411608943
390,0.143173217773437,0.000100058571232636
392,0.1220703125,0.0000949851959075068
394,0.106033325195312,0.0000982978723657618
396,0.093292236328125,0.0000965050555471307
398,0.082061767578125,0.000103490142564778
400,0.07513427734375,0.0000707520942344338
402,0.0684356689453125,0.000115705496887994
404,0.0633697509765625,0.0000912342891166794
406,0.059234619140625,0.000103208536212682
408,0.0566864013671875,0.000092501492713792
410,0.0543365478515625,0.000100058571232636
412,0.0526275634765625,0.0000741661914643234
414,0.051422119140625,0.0000952911071532959
416,0.050445556640625,0.0000791032461293324
418,0.049560546875,0.0000825245195494993
420,0.048614501953125,0.0000828764380737321
422,0.047882080078125,0.0000812808065515996
424,0.047607421875,0.0000928155903670993
426,0.047332763671875,0.000092501492713792
428,0.046539306640625,0.0000807419223347348
430,0.046600341796875,0.0000699245558922705
432,0.04644775390625,0.0000828764380737321
434,0.04571533203125,0.000097703922079969
436,0.04571533203125,0.0000709574708470851
438,0.0455322265625,0.0000912342891166794
440,0.0451507568359375,0.0000965050555471307
442,0.0449371337890625,0.0000854696521850894
444,0.0448760986328125,0.0000640596604299418
446,0.0445098876953125,0.0000660724947955657
448,0.0443572998046875,0.0000873224116688507
450,0.0441741943359375,0.0000703395420630866
452,0.0440521240234375,0.0000766744661035224
454,0.0439300537109375,0.000058726517938006
456,0.04412841796875,0.000086316745750311
458,0.043182373046875,0.0000682393791961606
460,0.0434722900390625,0.0000899492349437835
462,0.04364013671875,0.0000713664510111607
464,0.0430145263671875,0.000086316745750311
466,0.043121337890625,0.000114948418985896
468,0.04296875,0.0000869884815291701
470,0.0429229736328125,0.000112128741887658
472,0.0428619384765625,0.000108165335683882
474,0.0424652099609375,0.000107895932187889
476,0.04248046875,0.0000971063389690999
478,0.042327880859375,0.000101502492490006
480,0.0419921875,0.000119174952330119
482,0.0424652099609375,0.000100927402918419
484,0.040802001953125,0.000106538696622993
486,0.0397796630859375,0.0000622158295833591
488,0.0409393310546875,0.000113419103601978
490,0.0417022705078125,0.000115201331104595
492,0.0414886474609375,0.000110032692732666
494,0.0412445068359375,0.00014191494169417
496,0.0413055419921875,0.000100058571232636
498,0.0410919189453125,0.000119174952330119
500,0.04083251953125,0.000138594834324531
502,0.0405120849609375,0.000102926159387451
504,0.040802001953125,0.0000943703985355605
506,0.040435791015625,0.000123020290348794
508,0.0406646728515625,0.000152968884702785
510,0.0405731201171875,0.000152968884702785
512,0.04046630859375,0.000117453035876012
514,0.0400848388671875,0.000129475118625466
516,0.04022216796875,0.000112904728599157
518,0.0400238037109375,0.000119905347026838
520,0.0399322509765625,0.000158573987509358
522,0.0400543212890625,0.00016398761947788
524,0.0395660400390625,0.000168193112831487
526,0.0394439697265625,0.000171279482426786
528,0.039031982421875,0.000162561613103199
530,0.0389556884765625,0.00018750313915168
532,0.038604736328125,0.000132584741187918
534,0.03814697265625,0.000151054305063044
536,0.03826904296875,0.000112387999440431
538,0.0377349853515625,0.000139849111784541
540,0.0375823974609375,0.000136904590186511
542,0.03759765625,0.000126749021345796
544,0.0373687744140625,0.000115201331104595
546,0.0369720458984375,0.000160035529811119
548,0.036407470703125,0.000130816865535601
550,0.0371551513671875,0.000136904590186511
552,0.0366973876953125,0.000123020290348794
554,0.0364837646484375,0.000118194071844709
556,0.0364532470703125,0.000125363744546165
558,0.036376953125,0.000133023039048482
560,0.0359649658203125,0.000102643005730238
562,0.0358123779296875,0.000117700566257794
564,0.0355377197265625,0.000119418913593281
566,0.0353546142578125,0.000108165335683882
568,0.035125732421875,0.0000798356992204908
570,0.0345306396484375,0.0000665115195242412
572,0.0333251953125,0.0000798356992204908
574,0.03253173828125,0.0000673809880548695
576,0.031585693359375,0.0000778048631834837
578,0.0315399169921875,0.0000649619536053711
580,0.031036376953125,0.0000636037139912913
582,0.03094482421875,0.0000801994172730585
584,0.0307464599609375,0.0000816380865441616
586,0.031219482421875,0.0000707520942344338
588,0.0317840576171875,0.00006103515625
590,0.0328369140625,0.0000812808065515996
592,0.0330352783203125,0.0000631444753923296
594,0.032806396484375,0.0000654084327678003
596,0.033355712890625,0.0000883166267607897
598,0.0330657958984375,0.00006866455078125
600,0.03302001953125,0.0000680257968907433
602,0.03570556640625,0.0000994751343567299
604,0.032196044921875,0.000111608420092223
606,0.032501220703125,0.0000703395420630866
608,0.0323944091796875,0.0000902722134872378
610,0.0321197509765625,0.0000879864699910797
612,0.032379150390625,0.0000584782017393337
614,0.0321044921875,0.0000962030045541267
616,0.0321502685546875,0.0000943703985355605
618,0.0320281982421875,0.0000896250925023707
620,0.0320281982421875,0.0000873224116688507
622,0.0311279296875,0.00008199380973894
624,0.030120849609375,0.000107625854337051
626,0.030792236328125,0.000113675418287287
628,0.0317535400390625,0.000130816865535601
630,0.031524658203125,0.00012857284199793
632,0.0316162109375,0.00018310546875
634,0.0318603515625,0.000127664188619091
636,0.03094482421875,0.000135623083760309
638,0.0309600830078125,0.00013901418425208
640,0.031494140625,0.000165401332005911
642,0.0313873291015625,0.000250727489092331
644,0.0311431884765625,0.000175310139359681
646,0.0311431884765625,0.00017397696305834
648,0.030517578125,0.000166453737100765
650,0.031280517578125,0.000214167310296909
652,0.031402587890625,0.000181188081162078
654,0.03509521484375,0.000265169482375836
656,0.0303802490234375,0.000124431659166718
658,0.0282745361328125,0.000219004823217885
660,0.03106689453125,0.000234409965450092
662,0.0298309326171875,0.000206980285129555
664,0.02960205078125,0.000209217974865755
666,0.0303497314453125,0.000270386431071004
668,0.0297393798828125,0.000244140625
670,0.029998779296875,0.000235401132515587
672,0.0286865234375,0.000148332382928647
674,0.0300140380859375,0.000189970391815014
676,0.0296478271484375,0.000203004984980012
678,0.0289306640625,0.000162203152660136
680,0.0292205810546875,0.000142732902022321
682,0.02886962890625,0.000209773667676812
684,0.0283660888671875,0.00016398761947788
686,0.028472900390625,0.0000988882552857645
688,0.0291748046875,0.000162919284851552
690,0.0285491943359375,0.000149115145001923
692,0.0277862548828125,0.000140679084126173
694,0.0282440185546875,0.000143140129389143
696,0.027496337890625,0.000118194071844709
698,0.0279083251953125,0.000145159130786441
700,0.0277099609375,0.000190582214306592
702,0.0270538330078125,0.00018935659249864
704,0.02752685546875,0.00016148384466947
706,0.0263519287109375,0.000158206492258665
708,0.027435302734375,0.000110032692732666
710,0.02593994140625,0.000154483465052159
712,0.0269012451171875,0.000181188081162078
714,0.0259857177734375,0.000103770984716304
716,0.02685546875,0.000133895330618166
718,0.0255889892578125,0.00013901418425208
720,0.02667236328125,0.000128119320859884
722,0.02691650390625,0.000156727894471543
724,0.02587890625,0.000202430712301965
726,0.02593994140625,0.000121112883502102
728,0.0263214111328125,0.00013037115089901
730,0.02532958984375,0.00017397696305834
732,0.02630615234375,0.000126288950784659
734,0.025299072265625,0.0000811015763300678
736,0.02606201171875,0.0000781780301358002
738,0.0263824462890625,0.0001220703125
740,0.02569580078125,0.00012857284199793
742,0.025970458984375,0.000124431659166718
744,0.02642822265625,0.000158940633056638
746,0.0258941650390625,0.000138174211702536
748,0.0258941650390625,0.000146357163187034
750,0.0250091552734375,0.000138174211702536
752,0.0259552001953125,0.000120872341291465
754,0.0248870849609375,0.0000937515695758401
756,0.0247955322265625,0.0000988882552857645
758,0.0243682861328125,0.0000940614929652248
760,0.0249786376953125,0.0000837497650150305
762,0.0252838134765625,0.000102359068794241
764,0.023773193359375,0.000109767872390275
766,0.0255279541015625,0.000101502492490006
768,0.0240478515625,0.00012254622195594
770,0.0249481201171875,0.000109236305719577
772,0.025482177734375,0.000103490142564778
774,0.025054931640625,0.000131261066696817
776,0.02484130859375,0.00013901418425208
778,0.024932861328125,0.0001942126779382
780,0.0249786376953125,0.000148724278943008
782,0.024383544921875,0.0001068115234375
784,0.0243682861328125,0.00012014782522601
786,0.024566650390625,0.000150668469681789
788,0.023681640625,0.0001220703125
790,0.024749755859375,0.00017025690921342
792,0.0240020751953125,0.000147150432754409
794,0.022125244140625,0.000152205942865448
796,0.0258941650390625,0.000136904590186511
798,0.0229339599609375,0.000164695992621787
800,0.02392578125,0.000175310139359681
802,0.02349853515625,0.000160035529811119
804,0.024444580078125,0.00021253033870215
806,0.0233612060546875,0.000116956403478667
808,0.0240020751953125,0.000123962988351989
810,0.024322509765625,0.000190582214306592
812,0.02288818359375,0.00016148384466947
814,0.022857666015625,0.000186257257320155
816,0.0244598388671875,0.000173306529107674
818,0.0224151611328125,0.000206417072425364
820,0.023773193359375,0.000243185080726764
